Index,Force [ kN ],Déplacement [ mm ]
1,1.62744145200122E-05,-0.171566605567932
2,8.13720689620823E-05,-0.170928508043289
3,0.000227841796004213,-0.173108652234077
4,0.000504506810102612,-0.170157492160797
5,0.000911367184016854,-0.169785261154175
6,0.00136705080512911,-0.172497153282166
7,0.00190410646609962,-0.169094011187553
8,0.00262018060311675,-0.170609474182129
9,0.0036291943397373,-0.168695196509361
10,0.00483350083231926,-0.168668612837791
11,0.00571231916546822,-0.168828129768372
12,0.00631447276100516,-0.170901924371719
13,0.00701427226886153,-0.170210659503937
14,0.00802328623831272,-0.169226944446564
15,0.00924386736005545,-0.168987661600113
16,0.010106410831213,-0.170157492160797
17,0.0107085648924112,-0.16829639673233
18,0.0113920895382762,-0.167897582054138
19,0.0124011039733887,-0.166993618011475
20,0.0136542329564691,-0.167419016361237
21,0.0145493261516094,-0.165371805429459
22,0.0151189304888248,-0.166063070297241
23,0.0157536324113607,-0.16555792093277
24,0.0166324507445097,-0.164122208952904
25,0.0178042091429234,-0.166302353143692
26,0.0187643989920616,-0.166328951716423
27,0.0193665530532599,-0.163909524679184
28,0.0200012549757957,-0.163643643260002
29,0.0208637993782759,-0.164441257715225
30,0.0220518317073584,-0.162261113524437
31,0.0231422167271376,-0.166940450668335
32,0.0237769186496735,-0.166780918836594
33,0.0243790727108717,-0.16053295135498
34,0.025209067389369,-0.162261113524437
35,0.0264133736491203,-0.162526994943619
36,0.0275037605315447,-0.161968663334847
37,0.0281547363847494,-0.163404360413551
38,0.0287406146526337,-0.163457542657852
39,0.0295217875391245,-0.161596432328224
40,0.0306121725589037,-0.159070670604706
41,0.031702559441328,-0.162447229027748
42,0.0323698110878468,-0.162500396370888
43,0.0329394154250622,-0.161649614572525
44,0.0336229391396046,-0.160772234201431
45,0.0345994047820568,-0.162473812699318
46,0.0358525328338146,-0.161144465208054
47,0.0367801748216152,-0.161782547831535
48,0.0373660549521446,-0.160931766033173
49,0.0380333065986633,-0.161144465208054
50,0.0389609485864639,-0.158565506339073
51,0.0401327051222324,-0.158273056149483
52,0.0409952476620674,-0.158166706562042
53,0.0415485799312592,-0.159230187535286
54,0.0421507321298122,-0.156598061323166
55,0.0429807268083096,-0.157262742519379
56,0.0441524870693684,-0.15774130821228
57,0.0452265962958336,-0.159389704465866
58,0.0458613000810146,-0.157129809260368
59,0.0464146286249161,-0.157422259449959
60,0.0471632517874241,-0.157395675778389
61,0.0482048131525517,-0.158538922667503
62,0.0493928454816341,-0.15771472454071
63,0.0501902922987938,-0.156996876001358
64,0.0507761724293232,-0.156092911958694
65,0.0514922477304935,-0.156598061323166
66,0.0525175333023071,-0.154258400201797
67,0.0537218414247036,-0.154550850391388
68,0.0544867366552353,-0.154550850391388
69,0.0550075210630894,-0.152929037809372
70,0.0556584969162941,-0.15500283241272
71,0.0565698631107807,-0.156385362148285
72,0.0577741712331772,-0.154338166117668
73,0.0587669089436531,-0.155321881175041
74,0.0593690611422062,-0.156225845217705
75,0.0599549412727356,-0.154338166117668
76,0.0607361122965813,-0.154444500803947
77,0.0618264973163605,-0.154604032635689
78,0.0628843382000923,-0.153088569641113
79,0.0635841339826584,-0.150456443428993
80,0.0641374662518501,-0.153221502900124
81,0.0649023652076721,-0.151200875639915
82,0.0659764781594276,-0.149233430624008
83,0.0671319589018822,-0.149844944477081
84,0.0678643062710762,-0.151360407471657
85,0.0684013590216637,-0.149313196539879
86,0.069036066532135,-0.146282270550728
87,0.0699474290013313,-0.146627902984619
88,0.0711517408490181,-0.149127081036568
89,0.0721282064914703,-0.148435816168785
90,0.0726978108286858,-0.147930666804314
91,0.0732999593019485,-0.144554108381271
92,0.0741299539804459,-0.147611618041992
93,0.075285442173481,-0.142693012952805
94,0.0763270035386086,-0.145936638116837
95,0.0769454315304756,-0.145511239767075
96,0.077515035867691,-0.142693012952805
97,0.0782962068915367,-0.141177535057068
98,0.0794354155659676,-0.142187848687172
99,0.0806071758270264,-0.142054915428162
100,0.0813232436776161,-0.140246987342834
101,0.0818603038787842,-0.144314825534821
102,0.0825600996613503,-0.141496583819389
103,0.0835365653038025,-0.140060886740685
104,0.0846757739782333,-0.139981120824814
105,0.085456945002079,-0.137933909893036
106,0.0859940052032471,-0.139130339026451
107,0.0866124331951141,-0.134318068623543
108,0.0874749720096588,-0.1336799710989
109,0.0886467322707176,-0.134876400232315
110,0.0896882936358452,-0.132217690348625
111,0.0903067216277123,-0.129426032304764
112,0.0909088775515556,-0.12822961807251
113,0.0917388722300529,-0.128867715597153
114,0.0928780809044838,-0.12849548459053
115,0.093968465924263,-0.126634389162064
116,0.094619445502758,-0.12557090818882
117,0.0951402261853218,-0.125384792685509
118,0.0958400219678879,-0.124720118939877
119,0.0968327671289444,-0.120864987373352
120,0.0980045199394226,-0.121689192950726
121,0.0988019704818726,-0.118339218199253
122,0.09933902323246,-0.118870958685875
123,0.0999737232923508,-0.116584464907646
124,0.100885093212128,-0.115095585584641
125,0.10207312554121,-0.115069001913071
126,0.103098414838314,-0.112596400082111
127,0.103716842830181,-0.112835682928562
128,0.104318991303444,-0.112516641616821
129,0.105132713913918,-0.110230147838593
130,0.106255650520325,-0.105497643351555
131,0.107313483953476,-0.107358738780022
132,0.107948191463947,-0.105311535298824
133,0.108485244214535,-0.103211149573326
134,0.109217591583729,-0.104673445224762
135,0.110226608812809,-0.0994091928005219
136,0.111398361623287,-0.0997548252344131
137,0.112195812165737,-0.0972024649381638
138,0.112732864916325,-0.0966441333293915
139,0.113318748772144,-0.0913001298904419
140,0.114165015518665,-0.0912203639745712
141,0.115336775779724,-0.0886148288846016
142,0.116362057626247,-0.0853712037205696
143,0.116996765136719,-0.0887211784720421
144,0.117598913609982,-0.0847862884402275
145,0.118412636220455,-0.0832176432013512
146,0.119519293308258,-0.0781660974025726
147,0.120593406260014,-0.0768367424607277
148,0.121228113770485,-0.0783256217837334
149,0.121748894453049,-0.0722903460264206
150,0.122432418167591,-0.0721839964389801
151,0.123360060155392,-0.0710673406720161
152,0.124596916139126,-0.0650320649147034
153,0.12554082274437,-0.0661221370100975
154,0.126077890396118,-0.0621606558561325
155,0.126696318387985,-0.0621606558561325
156,0.127526313066483,-0.0603793226182461
157,0.128632962703705,-0.0566305406391621
158,0.129690811038017,-0.0553809441626072
159,0.130309239029884,-0.0509674847126007
160,0.130895107984543,-0.0500635243952274
161,0.131660014390945,-0.0522170774638653
162,0.13273411989212,-0.0488671027123928
163,0.133889600634575,-0.0441877730190754
164,0.134638234972954,-0.0439750775694847
165,0.135175287723541,-0.0417417585849762
166,0.135809987783432,-0.0392691567540169
167,0.136721357703209,-0.0359191820025444
168,0.137909382581711,-0.0356533117592335
169,0.138853296637535,-0.0316386595368385
170,0.139406636357307,-0.0299104955047369
171,0.14000877737999,-0.0290862955152988
172,0.140789955854416,-0.0258692558854818
173,0.141896620392799,-0.0239815711975098
174,0.142970725893974,-0.0200998540967703
175,0.143621698021889,-0.0193022396415472
176,0.144207581877708,-0.0163510702550411
177,0.14497247338295,-0.0119907855987549
178,0.14606286585331,-0.00957135856151581
179,0.147267177700996,-0.00885350722819567
180,0.147918149828911,-0.00518448604270816
181,0.148438930511475,-0.00433369865640998
182,0.149073630571365,-0.00297775608487427
183,0.149952456355095,-0.00292458175681531
184,0.15115675330162,0.00295116892084479
185,0.152084395289421,0.00622138334438205
186,0.152670279145241,0.00598209910094738
187,0.153304979205132,0.00752415135502815
188,0.154118701815605,0.0112729333341122
189,0.155290454626083,0.0166169423609972
190,0.156364575028419,0.0155268711969256
191,0.15699927508831,0.0166169423609972
192,0.157552599906921,0.0220141243189573
193,0.158333778381348,0.0242740288376808
194,0.159424155950546,0.0252045784145594
195,0.160595923662186,0.0299636702984571
196,0.161295711994171,0.0345366522669792
197,0.161865323781967,0.0333402343094349
198,0.162597671151161,0.0356533117592335
199,0.163509041070938,0.0401997081935406
200,0.164615705609322,0.0405453406274319
201,0.165445700287819,0.0433369837701321
202,0.166047841310501,0.0449056252837181
203,0.166682556271553,0.0477238595485687
204,0.167479991912842,0.0498774126172066
205,0.168651759624481,0.0560722090303898
206,0.169807240366936,0.056896410882473
207,0.170474484562874,0.0589967928826809
208,0.171109184622765,0.0581460036337376
209,0.171922907233238,0.0618947856128216
210,0.172997027635574,0.0662018954753876
211,0.17398975789547,0.0703494846820831
212,0.174591913819313,0.0695252865552902
213,0.175128966569901,0.0722371712327003
214,0.175812497735024,0.075853019952774
215,0.176805227994919,0.0781395062804222
216,0.178058370947838,0.0823934450745583
217,0.178888365626335,0.0841481983661652
218,0.17937658727169,0.0865942090749741
219,0.179978743195534,0.0872322991490364
220,0.180825009942055,0.0892795100808144
221,0.182078137993813,0.0913533046841621
222,0.183152258396149,0.0964048504829407
223,0.183786958456039,0.0969365909695625
224,0.184454202651978,0.101695686578751
225,0.185349300503731,0.104593679308891
226,0.186504781246185,0.10685358196497
227,0.187481254339218,0.107757546007633
228,0.188034579157829,0.111532919108868
229,0.18858790397644,0.112038068473339
230,0.189320251345634,0.114617019891739
231,0.190361827611923,0.117328904569149
232,0.191549852490425,0.120891578495502
233,0.192331030964851,0.123337589204311
234,0.192884355783463,0.127192720770836
235,0.193551599979401,0.126262173056602
236,0.194446697831154,0.129186749458313
237,0.195585906505585,0.135115683078766
238,0.196464732289314,0.135753765702248
239,0.197066873311996,0.138864457607269
240,0.197717860341072,0.141310468316078
241,0.198612943291664,0.144926324486732
242,0.199752151966095,0.145670756697655
243,0.200777441263199,0.148728281259537
244,0.201395869255066,0.150722309947014
245,0.201949208974838,0.153700068593025
246,0.20271410048008,0.156996876001358
247,0.203788205981255,0.156491711735725
248,0.20494370162487,0.161144465208054
249,0.205659776926041,0.160506367683411
250,0.206213101744652,0.165212288498878
251,0.206896632909775,0.166196003556252
252,0.207840546965599,0.171885654330254
253,0.209061115980148,0.174650713801384
254,0.209891125559807,0.174517765641212
255,0.210444450378418,0.178452670574188
256,0.211062878370285,0.181483596563339
257,0.211941689252853,0.18188239634037
258,0.213162273168564,0.18438158929348
259,0.214220106601715,0.190496623516083
260,0.214822262525558,0.190789088606834
261,0.215408146381378,0.195627942681313
262,0.216221868991852,0.195468410849571
263,0.217295974493027,0.199110850691795
264,0.218370094895363,0.2005465477705
265,0.21898852288723,0.203577473759651
266,0.219541847705841,0.207459196448326
267,0.220241650938988,0.207352846860886
268,0.221234381198883,0.212430983781815
269,0.22243869304657,0.216817855834961
270,0.223268687725067,0.218280151486397
271,0.223838284611702,0.221390843391418
272,0.224505543708801,0.219822198152542
273,0.225433185696602,0.225113034248352
274,0.226637497544289,0.226362630724907
275,0.227548852562904,0.230935618281364
276,0.228085920214653,0.230935618281364
277,0.228688061237335,0.231015369296074
278,0.229501783847809,0.236572086811066
279,0.230624720454216,0.236917719244957
280,0.231682553887367,0.242421239614487
281,0.232317253947258,0.242421239614487
282,0.232854321599007,0.245771214365959
283,0.233537837862968,0.247765257954597
284,0.234530583024025,0.249998569488525
285,0.235767439007759,0.255980670452118
286,0.236629977822304,0.25919771194458
287,0.237215861678123,0.258426696062088
288,0.237850561738014,0.262175470590591
289,0.238761931657791,0.265286147594452
290,0.239917412400246,0.268423438072205
291,0.240828782320023,0.270284533500671
292,0.241382107138634,0.271028965711594
293,0.241967990994453,0.271108746528625
294,0.242749154567719,0.274910688400269
295,0.243823274970055,0.279749542474747
296,0.244946211576462,0.282567769289017
297,0.2456134557724,0.28597092628479
298,0.246166780591011,0.287911772727966
299,0.246817767620087,0.288337171077728
300,0.247745409607887,0.289533585309982
301,0.248949706554413,0.295143485069275
302,0.249877348542213,0.296658933162689
303,0.250479519367218,0.301178753376007
304,0.251114219427109,0.298307329416275
305,0.251993030309677,0.303651362657547
306,0.25318107008934,0.306974738836288
307,0.254124969244003,0.307293772697449
308,0.254694581031799,0.310803294181824
309,0.255247920751572,0.311467975378037
310,0.255963981151581,0.315456032752991
311,0.257005542516708,0.318752825260162
312,0.258193582296371,0.318992108106613
313,0.259007304906845,0.324309527873993
314,0.259560644626617,0.324495643377304
315,0.260179042816162,0.328271001577377
316,0.261074155569077,0.331886857748032
317,0.26222962141037,0.335795164108276
318,0.263141006231308,0.338294357061386
319,0.263743162155151,0.340075701475143
320,0.264345318078995,0.341086000204086
321,0.265191584825516,0.341803848743439
322,0.266347050666809,0.345818489789963
323,0.26743745803833,0.348955780267715
324,0.268072158098221,0.35259822010994
325,0.268625468015671,0.353794634342194
326,0.269341558218002,0.353262901306152
327,0.270366847515106,0.358606904745102
328,0.2715223133564,0.361584663391113
329,0.272319763898849,0.364908039569855
330,0.272873103618622,0.369853258132935
331,0.273491531610489,0.366450101137161
332,0.274386614561081,0.370757222175598
333,0.275542110204697,0.374240130186081
334,0.27648600935936,0.37679249048233
335,0.277104437351227,0.381232529878616
336,0.27770659327507,0.382030159235001
337,0.278520315885544,0.381737679243088
338,0.279692083597183,0.385087668895721
339,0.280815005302429,0.39051142334938
340,0.28144970536232,0.388038843870163
341,0.281986773014069,0.392026901245117
342,0.28267028927803,0.394446313381195
343,0.283663034439087,0.397184789180756
344,0.284802258014679,0.40114626288414
345,0.285567134618759,0.406330764293671
346,0.286104202270508,0.40609148144722
347,0.286738902330399,0.409255355596542
348,0.287617713212967,0.410770803689957
349,0.288822025060654,0.415716022253037
350,0.289831042289734,0.418534249067307
351,0.290433198213577,0.420661211013794
352,0.291035354137421,0.419650912284851
353,0.291849076747894,0.425340533256531
354,0.292988270521164,0.428903222084045
355,0.294078648090363,0.429860353469849
356,0.294745922088623,0.430923819541931
357,0.295299232006073,0.433715492486954
358,0.296031594276428,0.436719834804535
359,0.297056883573532,0.437464267015457
360,0.298179805278778,0.442888021469116
361,0.298912167549133,0.444084465503693
362,0.299432933330536,0.447221726179123
363,0.300067633390427,0.447859823703766
364,0.300930202007294,0.451954245567322
365,0.302101939916611,0.452698677778244
366,0.303176045417786,0.458760529756546
367,0.303827047348022,0.459132760763168
368,0.30441290140152,0.460329174995422
369,0.305242896080017,0.462057322263718
370,0.306365847587585,0.46777355670929
371,0.307374864816666,0.469953715801239
372,0.307993292808533,0.471150130033493
373,0.308546602725983,0.471708446741104
374,0.309262692928314,0.476547300815582
375,0.310271710157394,0.479737758636475
376,0.311443448066711,0.481971085071564
377,0.312240898609161,0.485134959220886
378,0.31277796626091,0.48917618393898
379,0.313428938388824,0.487953186035156
380,0.314291477203369,0.491462677717209
381,0.315463244915009,0.491542428731918
382,0.316472262144089,0.497577697038651
383,0.317090690135956,0.499491989612579
384,0.317709118127823,0.50015664100647
385,0.318522840738297,0.503772497177124
386,0.31967830657959,0.506032407283783
387,0.320736140012741,0.511030793190002
388,0.321338295936584,0.515178382396698
389,0.321891635656357,0.514247834682465
390,0.322623997926712,0.514912486076355
391,0.32363298535347,0.517704129219055
392,0.32485356926918,0.520841419696808
393,0.32565101981163,0.523739397525787
394,0.326188087463379,0.528578281402588
395,0.32682278752327,0.530173480510712
396,0.327685326337814,0.533284187316895
397,0.32884082198143,0.531396508216858
398,0.329800993204117,0.537086129188538
399,0.33040314912796,0.537564694881439
400,0.331021577119827,0.540382981300354
401,0.331867843866348,0.541951596736908
402,0.333023339509964,0.544557154178619
403,0.334064900875092,0.550751924514771
404,0.334650784730911,0.551389992237091
405,0.335171550512314,0.555191993713379
406,0.335871368646622,0.557132840156555
407,0.336864084005356,0.560296714305878
408,0.338084667921066,0.563620090484619
409,0.33889839053154,0.563912570476532
410,0.339435458183289,0.565747082233429
411,0.340070158243179,0.567953765392303
412,0.340965241193771,0.567980349063873
413,0.342153280973434,0.575052559375763
414,0.343080908060074,0.577844202518463
415,0.343666791915894,0.579811632633209
416,0.344268947839737,0.581858813762665
417,0.345082670450211,0.583135008811951
418,0.346270710229874,0.586564779281616
419,0.347377359867096,0.589888155460358
420,0.34802833199501,0.593397617340088
421,0.348581671714783,0.592759549617767
422,0.349281460046768,0.598076999187469
423,0.350290477275848,0.599751949310303
424,0.351413428783417,0.602410674095154
425,0.352129489183426,0.60639876127243
426,0.352666556835175,0.60371345281601
427,0.353317528963089,0.607648313045502
428,0.354180067777634,0.609057426452637
429,0.355351835489273,0.612699866294861
430,0.356328308582306,0.612886011600494
431,0.356946736574173,0.617831170558929
432,0.35756516456604,0.619399845600128
433,0.358346313238144,0.620755791664124
434,0.359485536813736,0.627189874649048
435,0.360575914382935,0.629981517791748
436,0.361243158578873,0.632454097270966
437,0.361796498298645,0.632959246635437
438,0.362480014562607,0.637027084827423
439,0.363440215587616,0.640456795692444
440,0.364611983299255,0.642663538455963
441,0.365393131971359,0.643434584140778
442,0.365930199623108,0.645853996276855
443,0.366532355546951,0.648087322711945
444,0.36741116642952,0.652155160903931
445,0.368615478277206,0.654627740383148
446,0.36964076757431,0.656276166439056
447,0.370259195566177,0.659174144268036
448,0.370828807353973,0.661035239696503
449,0.371561139822006,0.664066195487976
450,0.372667819261551,0.6649169921875
451,0.373790740966797,0.669941902160645
452,0.374457985162735,0.671483993530273
453,0.375043869018555,0.67135101556778
454,0.37574365735054,0.674381971359253
455,0.376736402511597,0.677785098552704
456,0.377956986427307,0.679539859294891
457,0.378803253173828,0.683022797107697
458,0.379324048757553,0.682172000408173
459,0.379893660545349,0.688871920108795
460,0.3807073533535,0.691158413887024
461,0.381862848997116,0.693444907665253
462,0.382936954498291,0.695013582706451
463,0.383620500564575,0.698682606220245
464,0.384255200624466,0.701793253421783
465,0.38503634929657,0.701554000377655
466,0.386126756668091,0.708386898040771
467,0.387135773897171,0.708998382091522
468,0.387803018093109,0.711896359920502
469,0.388405174016953,0.712454736232758
470,0.389088690280914,0.715645134449005
471,0.390065163373947,0.717373311519623
472,0.391236901283264,0.721042335033417
473,0.39218083024025,0.724897503852844
474,0.392782986164093,0.726359784603119
475,0.393417686223984,0.725881218910217
476,0.394280225038528,0.731570839881897
477,0.395403176546097,0.734947383403778
478,0.396330803632736,0.736941456794739
479,0.396965503692627,0.740105271339417
480,0.397535115480423,0.741780281066895
481,0.398283749818802,0.742710828781128
